 % Simulated Fireball:IT20000000
 %    
 % TS (gradi): 217.8996167 
 %    
 % Time (s) 				 RA (°) 			 Dec (°)		 Azimut (°) 		 Altezza (°) 
 2457904.381447147100 		 210.410191957 		 12.843577240 		 193.640561471 		 57.393165915 
 2457904.381447832100 		 210.414936484 		 13.145177113 		 193.728864507 		 57.691055231 
 2457904.381448738300 		 210.419770521 		 13.452881667 		 193.820497330 		 57.994906648 
 2457904.381449380900 		 210.424689698 		 13.766385213 		 193.915504324 		 58.304412426 
 2457904.381450142700 		 210.429711998 		 14.086804211 		 194.014374954 		 58.620668225 
 2457904.381450949700 		 210.434833484 		 14.413853492 		 194.117189691 		 58.943385266 
 2457904.381451814900 		 210.440049783 		 14.747213855 		 194.224022950 		 59.272240989 
 2457904.381452541300 		 210.445380242 		 15.088078551 		 194.335452776 		 59.608404023 
 2457904.381453295700 		 210.450820989 		 15.436150663 		 194.451600921 		 59.951572040 
 2457904.381454175300 		 210.456367676 		 15.791096236 		 194.572584501 		 60.301405862 
 2457904.381454879900 		 210.462041206 		 16.154191887 		 194.699095418 		 60.659152562 
 2457904.381455689200 		 210.467837816 		 16.525127751 		 194.831314002 		 61.024494308 
 2457904.381456330400 		 210.473753226 		 16.903553563 		 194.969418738 		 61.397072926 
 2457904.381457261300 		 210.479810117 		 17.290836279 		 195.114250681 		 61.778219365 
 2457904.381457899700 		 210.486004894 		 17.686651510 		 195.266074438 		 62.167597582 
 2457904.381458738800 		 210.492343009 		 18.091243949 		 195.425402705 		 62.565430052 
 2457904.381459415400 		 210.498820366 		 18.504238360 		 195.592541848 		 62.971328029 
 2457904.381460228000 		 210.505462436 		 18.927133544 		 195.768614120 		 63.386742079 
 2457904.381461049900 		 210.512265974 		 19.359582347 		 195.954060689 		 63.811305647 
 2457904.381461799600 		 210.519227112 		 19.801187633 		 196.149339829 		 64.244601398 
 2457904.381462596400 		 210.526373806 		 20.253555977 		 196.355880004 		 64.688174313 
 2457904.381463322800 		 210.533703202 		 20.716319846 		 196.574334125 		 65.141628124 
 2457904.381464226200 		 210.541211767 		 21.189056612 		 196.805392384 		 65.604509771 
 2457904.381464850600 		 210.548930352 		 21.673488022 		 197.050919785 		 66.078460270 
 2457904.381465639000 		 210.556856635 		 22.169221908 		 197.311896221 		 66.563044248 
 2457904.381466459000 		 210.564987558 		 22.675805198 		 197.589375450 		 67.057762068 
 2457904.381467148200 		 210.573357363 		 23.195081811 		 197.885866567 		 67.564348537 
 2457904.381468037600 		 210.581964446 		 23.726629339 		 198.202870320 		 68.082314854 
 2457904.381468653200 		 210.590806398 		 24.269957800 		 198.542029249 		 68.611098185 
 2457904.381469585500 		 210.599921461 		 24.827039385 		 198.906841615 		 69.152517705 
 2457904.381470365000 		 210.609308978 		 25.397413909 		 199.299669156 		 69.706008215 
 2457904.381471063900 		 210.618967420 		 25.980545954 		 199.723145828 		 70.270916796 
 2457904.381471748500 		 210.628939752 		 26.578540520 		 200.182362490 		 70.849124073 
 2457904.381472553100 		 210.639226556 		 27.190889621 		 200.681168999 		 71.439949573 
 2457904.381473463500 		 210.649827448 		 27.817001234 		 201.223949259 		 72.042604019 
 2457904.381474113600 		 210.660790991 		 28.459115348 		 201.818506193 		 72.658979876 
 2457904.381474830700 		 210.672119330 		 29.116662992 		 202.471404019 		 73.288210733 
 2457904.381475696300 		 210.683813527 		 29.788981100 		 203.190296883 		 73.929284620 
 2457904.381476484700 		 210.695928728 		 30.478443527 		 203.987925415 		 74.583999218 
 2457904.381477168300 		 210.708468964 		 31.184403332 		 204.876137249 		 75.251161302 
 2457904.381478005100 		 210.721436979 		 31.906108131 		 205.869132106 		 75.929357817 
 2457904.381478678900 		 210.734895528 		 32.646060261 		 206.989380114 		 76.620050286 
 2457904.381479491900 		 210.748850675 		 33.403513605 		 208.259833636 		 77.321403512 
 2457904.381480333900 		 210.763306832 		 34.177604198 		 209.708881377 		 78.031186110 
 2457904.381481147800 		 210.778335191 		 34.970952713 		 211.379952273 		 78.749922319 
 2457904.381481812800 		 210.793943582 		 35.782688964 		 213.321356002 		 79.474327586 
 2457904.381482699000 		 210.810137671 		 36.611812395 		 215.594780955 		 80.200228595 
 2457904.381483320600 		 210.826997965 		 37.461048572 		 218.292522018 		 80.925517366 
 2457904.381484161600 		 210.844534658 		 38.329378289 		 221.523845533 		 81.643081349 
 2457904.381484865700 		 210.862757675 		 39.215642181 		 225.429421281 		 82.343363156 
 2457904.381485692700 		 210.881767400 		 40.122660588 		 230.209754841 		 83.016349890 
 2457904.381486536000 		 210.901599711 		 41.049248056 		 236.090919672 		 83.643724938 
 2457904.381487186500 		 210.922319902 		 41.994067995 		 243.313663139 		 84.200575118 
 2457904.381487982800 		 210.944148514 		 42.960002582 		 252.103024984 		 84.656329961 
 2457904.381488891800 		 210.967297752 		 43.945599245 		 262.456052611 		 84.970978047 
 2457904.381489562300 		 210.992031778 		 44.949133523 		 273.976277200 		 85.105380659 
 2457904.381490365100 		 211.018680954 		 45.973231125 		 285.885982573 		 85.033621874 
 2457904.381491093900 		 211.047305315 		 47.015895349 		 297.191599640 		 84.752834063 
 2457904.381491885500 		 211.077810321 		 48.075023110 		 307.161062642 		 84.284610487 
 2457904.381492740000 		 211.110223712 		 49.153337736 		 315.555190330 		 83.660321881 
 2457904.381493393800 		 211.144513506 		 50.248797366 		 322.430814828 		 82.913798247 
 2457904.381494259000 		 211.180726823 		 51.359191781 		 328.006644848 		 82.074136787 
 2457904.381494955200 		 211.219144853 		 52.487228540 		 332.550670197 		 81.159978146 
 2457904.381495809200 		 211.259936629 		 53.630517227 		 336.275354166 		 80.188125920 
 2457904.381496538900 		 211.303295030 		 54.786455504 		 339.354675193 		 79.171604938 
 2457904.381497341200 		 211.349645809 		 55.957545350 		 341.935504233 		 78.115914123 
 2457904.381498167300 		 211.399260665 		 57.140986461 		 344.117876409 		 77.029108983 
 2457904.381498901200 		 211.452436361 		 58.333803730 		 345.979232883 		 75.918068771 
 2457904.381499703000 		 211.509764673 		 59.538307466 		 347.586340284 		 74.783711380 
 2457904.381500419200 		 211.571665099 		 60.751349306 		 348.983449407 		 73.631305266 
 2457904.381501240700 		 211.638606658 		 61.969643514 		 350.205658646 		 72.465785903 
 2457904.381502022000 		 211.711456912 		 63.195318926 		 351.285579522 		 71.286518143 
 2457904.381502731200 		 211.790901296 		 64.424947789 		 352.244293449 		 70.097894633 
 2457904.381503448800 		 211.877726170 		 65.655015907 		 353.099079950 		 68.904211115 
 2457904.381504269800 		 211.973288317 		 66.887499923 		 353.867475193 		 67.704267301 
 2457904.381505065100 		 212.078779075 		 68.118792677 		 354.560378068 		 66.502152582 
 2457904.381505867900 		 212.195605294 		 69.345263692 		 355.186995461 		 65.301899790 
 2457904.381506525400 		 212.326059361 		 70.568787852 		 355.757594118 		 64.102072183 
 2457904.381507332900 		 212.472374481 		 71.785704586 		 356.278214505 		 62.906584116 
 2457904.381508147300 		 212.637284366 		 72.992399559 		 356.754095592 		 61.719264137 
 2457904.381508805300 		 212.825071927 		 74.190707898 		 357.191684872 		 60.538531834 
 2457904.381509713400 		 213.040374649 		 75.377050695 		 357.594524744 		 59.368092873 
 2457904.381510322900 		 213.289150226 		 76.547961561 		 357.965760235 		 58.211514312 
 2457904.381511279400 		 213.580600444 		 77.705288919 		 358.309678676 		 57.067076329 
 2457904.381512019800 		 213.925897235 		 78.845649273 		 358.628455583 		 55.938187833 
 2457904.381512650800 		 214.340439857 		 79.965817139 		 358.924064445 		 54.828064307 
 2457904.381513468500 		 214.848592973 		 81.067650436 		 359.199493065 		 53.734824820 
 2457904.381514174900 		 215.484348772 		 82.147976661 		 359.456130514 		 52.661489997 
 2457904.381515128100 		 216.300272003 		 83.203740620 		 359.695263174 		 51.610842077 
 2457904.381515725500 		 217.387783943 		 84.236521502 		 359.919055813 		 50.580822028 
 2457904.381516570200 		 218.903849670 		 85.242807406 		 0.128426523 		 49.573994201 
 2457904.381517455900 		 221.152999210 		 86.218412084 		 0.324243145 		 48.592655720 
 2457904.381518153000 		 224.830014512 		 87.161198210 		 0.508126108 		 47.634571710 
 2457904.381518987000 		 231.802902394 		 88.056876733 		 0.680702216 		 46.701818501 
 2457904.381519695300 		 248.798039157 		 88.855983291 		 0.842576258 		 45.796194576 
 2457904.381520501300 		 299.660039836 		 89.288061489 		 0.994994926 		 44.915314937 
 2457904.381521152300 		 350.457446915 		 88.889409483 		 1.138401157 		 44.060766783 
 2457904.381522011900 		 7.425411614 		 88.170727811 		 1.273236755 		 43.233829431 
 2457904.381522647600 		 14.390780946 		 87.408003644 		 1.400490818 		 42.431960397 
 2457904.381523460100 		 18.065060116 		 86.650385438 		 1.520490594 		 41.656263617 
 2457904.381524209900 		 20.313031975 		 85.911013608 		 1.633563116 		 40.907596330 
 2457904.381525174200 		 21.828542155 		 85.191734249 		 1.740500094 		 40.183381510 
 2457904.381525877400 		 22.915779868 		 84.495210214 		 1.841544254 		 39.484360477 
 2457904.381526523700 		 23.731562135 		 83.822946648 		 1.936941915 		 38.811059348 
 2457904.381527483500 		 24.367237904 		 83.172946557 		 2.027335902 		 38.160934451 
 2457904.381528235000 		 24.875333834 		 82.545990836 		 2.112909580 		 37.534445194 
 2457904.381528850200 		 25.289820473 		 81.942562232 		 2.193851426 		 36.931869790 
 2457904.381529792200 		 25.635049555 		 81.360340057 		 2.270689121 		 36.350757840 
 2457904.381530400800 		 25.926412400 		 80.799669628 		 2.343562823 		 35.791364565 
 2457904.381531241300 		 26.175076035 		 80.260721039 		 2.412618139 		 35.253796622 
 2457904.381532133100 		 26.390238711 		 79.741222141 		 2.478291858 		 34.735743097 
 2457904.381532824100 		 26.577856022 		 79.241323783 		 2.540691666 		 34.237322341 
 2457904.381533657200 		 26.742564209 		 78.761048644 		 2.599930473 		 33.758532986 
 2457904.381534348200 		 26.888644494 		 78.298266856 		 2.656372210 		 33.297233978 
 2457904.381535202700 		 27.018829862 		 77.853026775 		 2.710099542 		 32.853460203 
 2457904.381535944500 		 27.135353038 		 77.425277734 		 2.761199920 		 32.427150842 
 2457904.381536591800 		 27.240504533 		 77.013065200 		 2.809978238 		 32.016350063 
 2457904.381537430000 		 27.335690359 		 76.616385802 		 2.856497570 		 31.621048451 
 2457904.381538263100 		 27.422100925 		 76.235158100 		 2.900825289 		 31.241160046 
 2457904.381539010900 		 27.501089813 		 75.867611994 		 2.943218117 		 30.874917230 
 2457904.381539749900 		 27.573441357 		 75.513723228 		 2.983723658 		 30.522292908 
 2457904.381540481500 		 27.639838468 		 75.173405059 		 3.022393358 		 30.183198297 
 2457904.381541321500 		 27.701142815 		 74.845068190 		 3.059444452 		 29.856047956 
 2457904.381541952500 		 27.757818685 		 74.528685888 		 3.094912300 		 29.540813783 
 2457904.381542781800 		 27.810279741 		 74.224180597 		 3.128835700 		 29.237417314 
 2457904.381543661900 		 27.859107033 		 73.930133009 		 3.161399416 		 28.944443461 
 2457904.381544343200 		 27.904587854 		 73.646524092 		 3.192629133 		 28.661872512 
 2457904.381545219600 		 27.946983286 		 73.373292759 		 3.222553628 		 28.389642987 
 2457904.381545951600 		 27.986703529 		 73.109175168 		 3.251330884 		 28.126495191 
 2457904.381546600300 		 28.023932372 		 72.854164816 		 3.278978975 		 27.872422256 
 2457904.381547387700 		 28.058839817 		 72.608219784 		 3.305518760 		 27.627382102 
 2457904.381548183500 		 28.091726466 		 72.370215761 		 3.331086085 		 27.390254302 
 2457904.381549019800 		 28.122712819 		 72.140160272 		 3.355693057 		 27.161046156 
 2457904.381549791900 		 28.151912200 		 71.918030537 		 3.379354316 		 26.939734807 
 2457904.381550654300 		 28.179551821 		 71.702825862 		 3.402187340 		 26.725323124 
 2457904.381551257800 		 28.205712070 		 71.494567382 		 3.424199598 		 26.517832067 
 2457904.381552165800 		 28.230469779 		 71.293249929 		 3.445400854 		 26.317256409 
 2457904.381552927700 		 28.254001233 		 71.097981400 		 3.465893306 		 26.122707277 
